"frequency";"r dBS21";"i dBS21"
1e+07;-6.03077;0
1.0146e+07;-6.03084;0
1.02942e+07;-6.03092;0
1.04446e+07;-6.031;0
1.05971e+07;-6.03109;0
1.07519e+07;-6.03117;0
1.09089e+07;-6.03125;0
1.10682e+07;-6.03133;0
1.12299e+07;-6.03142;0
1.13939e+07;-6.0315;0
1.15603e+07;-6.03158;0
1.17291e+07;-6.03167;0
1.19004e+07;-6.03176;0
1.20742e+07;-6.03184;0
1.22506e+07;-6.03193;0
1.24295e+07;-6.03202;0
1.2611e+07;-6.03211;0
1.27952e+07;-6.0322;0
1.29821e+07;-6.03229;0
1.31717e+07;-6.03238;0
1.33641e+07;-6.03247;0
1.35592e+07;-6.03257;0
1.37573e+07;-6.03266;0
1.39582e+07;-6.03276;0
1.4162e+07;-6.03285;0
1.43689e+07;-6.03295;0
1.45787e+07;-6.03304;0
1.47917e+07;-6.03314;0
1.50077e+07;-6.03324;0
1.52269e+07;-6.03334;0
1.54493e+07;-6.03344;0
1.56749e+07;-6.03354;0
1.59038e+07;-6.03364;0
1.61361e+07;-6.03375;0
1.63718e+07;-6.03385;0
1.66109e+07;-6.03396;0
1.68535e+07;-6.03406;0
1.70996e+07;-6.03417;0
1.73493e+07;-6.03428;0
1.76027e+07;-6.03438;0
1.78598e+07;-6.03449;0
1.81206e+07;-6.0346;0
1.83853e+07;-6.03472;0
1.86538e+07;-6.03483;0
1.89262e+07;-6.03494;0
1.92027e+07;-6.03505;0
1.94831e+07;-6.03517;0
1.97677e+07;-6.03529;0
2.00564e+07;-6.0354;0
2.03493e+07;-6.03552;0
2.06465e+07;-6.03564;0
2.0948e+07;-6.03576;0
2.1254e+07;-6.03588;0
2.15644e+07;-6.036;0
2.18793e+07;-6.03613;0
2.21989e+07;-6.03625;0
2.25231e+07;-6.03638;0
2.2852e+07;-6.0365;0
2.31858e+07;-6.03663;0
2.35244e+07;-6.03676;0
2.3868e+07;-6.03689;0
2.42165e+07;-6.03702;0
2.45702e+07;-6.03715;0
2.49291e+07;-6.03729;0
2.52931e+07;-6.03742;0
2.56625e+07;-6.03756;0
2.60373e+07;-6.0377;0
2.64176e+07;-6.03783;0
2.68034e+07;-6.03797;0
2.71949e+07;-6.03811;0
2.75921e+07;-6.03826;0
2.7995e+07;-6.0384;0
2.84039e+07;-6.03854;0
2.88187e+07;-6.03869;0
2.92396e+07;-6.03884;0
2.96667e+07;-6.03899;0
3.01e+07;-6.03914;0
3.05396e+07;-6.03929;0
3.09856e+07;-6.03944;0
3.14381e+07;-6.03959;0
3.18973e+07;-6.03975;0
3.23631e+07;-6.0399;0
3.28358e+07;-6.04006;0
3.33153e+07;-6.04022;0
3.38019e+07;-6.04038;0
3.42956e+07;-6.04055;0
3.47965e+07;-6.04071;0
3.53047e+07;-6.04088;0
3.58203e+07;-6.04104;0
3.63434e+07;-6.04121;0
3.68742e+07;-6.04138;0
3.74127e+07;-6.04155;0
3.79592e+07;-6.04173;0
3.85135e+07;-6.0419;0
3.9076e+07;-6.04208;0
3.96467e+07;-6.04226;0
4.02258e+07;-6.04244;0
4.08132e+07;-6.04262;0
4.14093e+07;-6.0428;0
4.20141e+07;-6.04298;0
4.26277e+07;-6.04317;0
4.32503e+07;-6.04336;0
4.38819e+07;-6.04355;0
4.45228e+07;-6.04374;0
4.51731e+07;-6.04393;0
4.58328e+07;-6.04413;0
4.65022e+07;-6.04433;0
4.71813e+07;-6.04453;0
4.78704e+07;-6.04473;0
4.85696e+07;-6.04493;0
4.92789e+07;-6.04514;0
4.99986e+07;-6.04534;0
5.07288e+07;-6.04555;0
5.14697e+07;-6.04576;0
5.22214e+07;-6.04597;0
5.29841e+07;-6.04619;0
5.37579e+07;-6.04641;0
5.45431e+07;-6.04663;0
5.53397e+07;-6.04685;0
5.61479e+07;-6.04707;0
5.69679e+07;-6.0473;0
5.77999e+07;-6.04752;0
5.86441e+07;-6.04775;0
5.95006e+07;-6.04798;0
6.03695e+07;-6.04822;0
6.12512e+07;-6.04846;0
6.21458e+07;-6.04869;0
6.30534e+07;-6.04894;0
6.39743e+07;-6.04918;0
6.49086e+07;-6.04943;0
6.58566e+07;-6.04967;0
6.68184e+07;-6.04993;0
6.77943e+07;-6.05018;0
6.87844e+07;-6.05043;0
6.9789e+07;-6.05069;0
7.08083e+07;-6.05095;0
7.18424e+07;-6.05122;0
7.28917e+07;-6.05148;0
7.39562e+07;-6.05175;0
7.50364e+07;-6.05202;0
7.61322e+07;-6.0523;0
7.72441e+07;-6.05258;0
7.83723e+07;-6.05286;0
7.95169e+07;-6.05314;0
8.06782e+07;-6.05343;0
8.18565e+07;-6.05371;0
8.3052e+07;-6.05401;0
8.4265e+07;-6.0543;0
8.54956e+07;-6.0546;0
8.67443e+07;-6.0549;0
8.80112e+07;-6.0552;0
8.92966e+07;-6.05551;0
9.06007e+07;-6.05582;0
9.19239e+07;-6.05613;0
9.32665e+07;-6.05645;0
9.46286e+07;-6.05677;0
9.60106e+07;-6.05709;0
9.74128e+07;-6.05742;0
9.88355e+07;-6.05775;0
1.00279e+08;-6.05808;0
1.01744e+08;-6.05842;0
1.0323e+08;-6.05876;0
1.04737e+08;-6.0591;0
1.06267e+08;-6.05945;0
1.07819e+08;-6.0598;0
1.09394e+08;-6.06015;0
1.10991e+08;-6.06051;0
1.12612e+08;-6.06088;0
1.14257e+08;-6.06124;0
1.15926e+08;-6.06161;0
1.17619e+08;-6.06199;0
1.19336e+08;-6.06237;0
1.21079e+08;-6.06275;0
1.22848e+08;-6.06313;0
1.24642e+08;-6.06353;0
1.26462e+08;-6.06392;0
1.28309e+08;-6.06432;0
1.30183e+08;-6.06472;0
1.32084e+08;-6.06513;0
1.34013e+08;-6.06554;0
1.35971e+08;-6.06596;0
1.37957e+08;-6.06638;0
1.39971e+08;-6.06681;0
1.42016e+08;-6.06724;0
1.4409e+08;-6.06768;0
1.46194e+08;-6.06812;0
1.48329e+08;-6.06856;0
1.50496e+08;-6.06901;0
1.52694e+08;-6.06947;0
1.54924e+08;-6.06993;0
1.57186e+08;-6.07039;0
1.59482e+08;-6.07087;0
1.61811e+08;-6.07134;0
1.64174e+08;-6.07182;0
1.66572e+08;-6.07231;0
1.69005e+08;-6.0728;0
1.71473e+08;-6.0733;0
1.73977e+08;-6.07381;0
1.76518e+08;-6.07432;0
1.79096e+08;-6.07483;0
1.81712e+08;-6.07535;0
1.84366e+08;-6.07588;0
1.87059e+08;-6.07641;0
1.89791e+08;-6.07695;0
1.92562e+08;-6.0775;0
1.95375e+08;-6.07805;0
1.98228e+08;-6.07861;0
2.01123e+08;-6.07918;0
2.04061e+08;-6.07975;0
2.07041e+08;-6.08033;0
2.10065e+08;-6.08091;0
2.13133e+08;-6.08151;0
2.16245e+08;-6.08211;0
2.19404e+08;-6.08271;0
2.22608e+08;-6.08333;0
2.25859e+08;-6.08395;0
2.29158e+08;-6.08458;0
2.32505e+08;-6.08521;0
2.359e+08;-6.08586;0
2.39345e+08;-6.08651;0
2.42841e+08;-6.08717;0
2.46388e+08;-6.08783;0
2.49986e+08;-6.08851;0
2.53637e+08;-6.08919;0
2.57341e+08;-6.08988;0
2.611e+08;-6.09058;0
2.64913e+08;-6.09129;0
2.68782e+08;-6.09201;0
2.72708e+08;-6.09273;0
2.76691e+08;-6.09347;0
2.80732e+08;-6.09421;0
2.84832e+08;-6.09496;0
2.88992e+08;-6.09573;0
2.93212e+08;-6.0965;0
2.97495e+08;-6.09728;0
3.01839e+08;-6.09807;0
3.06248e+08;-6.09887;0
3.1072e+08;-6.09968;0
3.15258e+08;-6.1005;0
3.19863e+08;-6.10133;0
3.24534e+08;-6.10217;0
3.29274e+08;-6.10302;0
3.34083e+08;-6.10389;0
3.38962e+08;-6.10476;0
3.43913e+08;-6.10564;0
3.48935e+08;-6.10654;0
3.54032e+08;-6.10745;0
3.59202e+08;-6.10836;0
3.64448e+08;-6.10929;0
3.69771e+08;-6.11023;0
3.75171e+08;-6.11119;0
3.80651e+08;-6.11215;0
3.8621e+08;-6.11313;0
3.91851e+08;-6.11412;0
3.97573e+08;-6.11512;0
4.0338e+08;-6.11614;0
4.09271e+08;-6.11717;0
4.15249e+08;-6.11821;0
4.21313e+08;-6.11926;0
4.27466e+08;-6.12033;0
4.33709e+08;-6.12141;0
4.40044e+08;-6.12251;0
4.4647e+08;-6.12362;0
4.52991e+08;-6.12474;0
4.59607e+08;-6.12588;0
4.66319e+08;-6.12704;0
4.7313e+08;-6.1282;0
4.8004e+08;-6.12939;0
4.87051e+08;-6.13059;0
4.94164e+08;-6.1318;0
5.01381e+08;-6.13303;0
5.08704e+08;-6.13428;0
5.16133e+08;-6.13554;0
5.23671e+08;-6.13682;0
5.31319e+08;-6.13811;0
5.39079e+08;-6.13942;0
5.46952e+08;-6.14075;0
5.54941e+08;-6.1421;0
5.63045e+08;-6.14346;0
5.71269e+08;-6.14484;0
5.79612e+08;-6.14624;0
5.88077e+08;-6.14766;0
5.96666e+08;-6.14909;0
6.0538e+08;-6.15054;0
6.14221e+08;-6.15202;0
6.23192e+08;-6.15351;0
6.32294e+08;-6.15502;0
6.41528e+08;-6.15655;0
6.50897e+08;-6.1581;0
6.60404e+08;-6.15967;0
6.70049e+08;-6.16125;0
6.79835e+08;-6.16286;0
6.89764e+08;-6.16449;0
6.99837e+08;-6.16615;0
7.10058e+08;-6.16782;0
7.20429e+08;-6.16951;0
7.3095e+08;-6.17123;0
7.41626e+08;-6.17296;0
7.52457e+08;-6.17472;0
7.63447e+08;-6.1765;0
7.74597e+08;-6.17831;0
7.8591e+08;-6.18013;0
7.97388e+08;-6.18198;0
8.09033e+08;-6.18386;0
8.20849e+08;-6.18575;0
8.32837e+08;-6.18767;0
8.45001e+08;-6.18962;0
8.57342e+08;-6.19158;0
8.69863e+08;-6.19358;0
8.82567e+08;-6.19559;0
8.95457e+08;-6.19764;0
9.08535e+08;-6.1997;0
9.21804e+08;-6.20179;0
9.35267e+08;-6.20391;0
9.48926e+08;-6.20606;0
9.62785e+08;-6.20823;0
9.76847e+08;-6.21042;0
9.91113e+08;-6.21264;0
1.00559e+09;-6.21489;0
1.02027e+09;-6.21717;0
1.03518e+09;-6.21947;0
1.05029e+09;-6.2218;0
1.06563e+09;-6.22416;0
1.0812e+09;-6.22655;0
1.09699e+09;-6.22896;0
1.11301e+09;-6.2314;0
1.12926e+09;-6.23387;0
1.14576e+09;-6.23637;0
1.16249e+09;-6.2389;0
1.17947e+09;-6.24146;0
1.19669e+09;-6.24404;0
1.21417e+09;-6.24666;0
1.2319e+09;-6.2493;0
1.2499e+09;-6.25198;0
1.26815e+09;-6.25469;0
1.28667e+09;-6.25742;0
1.30546e+09;-6.26019;0
1.32453e+09;-6.26299;0
1.34387e+09;-6.26582;0
1.3635e+09;-6.26868;0
1.38341e+09;-6.27157;0
1.40362e+09;-6.27449;0
1.42412e+09;-6.27745;0
1.44492e+09;-6.28043;0
1.46602e+09;-6.28345;0
1.48743e+09;-6.28651;0
1.50916e+09;-6.28959;0
1.5312e+09;-6.29271;0
1.55356e+09;-6.29586;0
1.57625e+09;-6.29905;0
1.59927e+09;-6.30227;0
1.62263e+09;-6.30552;0
1.64632e+09;-6.30881;0
1.67037e+09;-6.31214;0
1.69476e+09;-6.3155;0
1.71952e+09;-6.31889;0
1.74463e+09;-6.32232;0
1.77011e+09;-6.32579;0
1.79596e+09;-6.32929;0
1.82219e+09;-6.33283;0
1.8488e+09;-6.33641;0
1.8758e+09;-6.34003;0
1.9032e+09;-6.34368;0
1.931e+09;-6.34737;0
1.9592e+09;-6.3511;0
1.98781e+09;-6.35487;0
2.01684e+09;-6.35869;0
2.0463e+09;-6.36254;0
2.07619e+09;-6.36643;0
2.10651e+09;-6.37036;0
2.13727e+09;-6.37434;0
2.16849e+09;-6.37836;0
2.20016e+09;-6.38242;0
2.23229e+09;-6.38653;0
2.26489e+09;-6.39068;0
2.29797e+09;-6.39488;0
2.33153e+09;-6.39912;0
2.36558e+09;-6.40341;0
2.40013e+09;-6.40774;0
2.43519e+09;-6.41212;0
2.47075e+09;-6.41655;0
2.50684e+09;-6.42103;0
2.54345e+09;-6.42556;0
2.5806e+09;-6.43014;0
2.61828e+09;-6.43477;0
2.65652e+09;-6.43945;0
2.69532e+09;-6.44418;0
2.73469e+09;-6.44897;0
2.77463e+09;-6.45381;0
2.81515e+09;-6.4587;0
2.85626e+09;-6.46365;0
2.89798e+09;-6.46865;0
2.9403e+09;-6.4737;0
2.98325e+09;-6.47881;0
3.02682e+09;-6.48398;0
3.07102e+09;-6.4892;0
3.11587e+09;-6.49448;0
3.16138e+09;-6.49982;0
3.20755e+09;-6.50521;0
3.2544e+09;-6.51067;0
3.30193e+09;-6.51617;0
3.35015e+09;-6.52174;0
3.39908e+09;-6.52737;0
3.44872e+09;-6.53306;0
3.49909e+09;-6.5388;0
3.55019e+09;-6.54461;0
3.60204e+09;-6.55047;0
3.65465e+09;-6.5564;0
3.70803e+09;-6.56239;0
3.76218e+09;-6.56845;0
3.81713e+09;-6.57456;0
3.87288e+09;-6.58075;0
3.92944e+09;-6.587;0
3.98683e+09;-6.59331;0
4.04505e+09;-6.5997;0
4.10413e+09;-6.60616;0
4.16407e+09;-6.61269;0
4.22489e+09;-6.6193;0
4.28659e+09;-6.62599;0
4.3492e+09;-6.63276;0
4.41271e+09;-6.63961;0
4.47716e+09;-6.64655;0
4.54255e+09;-6.65357;0
4.60889e+09;-6.66069;0
4.67621e+09;-6.66789;0
4.7445e+09;-6.6752;0
4.81379e+09;-6.6826;0
4.8841e+09;-6.6901;0
4.95543e+09;-6.69769;0
5.0278e+09;-6.70539;0
5.10123e+09;-6.71319;0
5.17573e+09;-6.72109;0
5.25133e+09;-6.72909;0
5.32802e+09;-6.73718;0
5.40583e+09;-6.74537;0
5.48479e+09;-6.75365;0
5.56489e+09;-6.76202;0
5.64616e+09;-6.77047;0
5.72863e+09;-6.779;0
5.81229e+09;-6.7876;0
5.89718e+09;-6.79628;0
5.98331e+09;-6.80502;0
6.07069e+09;-6.81383;0
6.15935e+09;-6.82269;0
6.24931e+09;-6.83161;0
6.34058e+09;-6.84059;0
6.43318e+09;-6.84962;0
6.52714e+09;-6.85872;0
6.62246e+09;-6.86787;0
6.71918e+09;-6.87709;0
6.81732e+09;-6.88638;0
6.91688e+09;-6.89575;0
7.0179e+09;-6.90521;0
7.1204e+09;-6.91476;0
7.22439e+09;-6.92443;0
7.3299e+09;-6.9342;0
7.43695e+09;-6.94411;0
7.54557e+09;-6.95414;0
7.65577e+09;-6.96432;0
7.76758e+09;-6.97464;0
7.88102e+09;-6.98511;0
7.99612e+09;-6.99573;0
8.11291e+09;-7.00651;0
8.23139e+09;-7.01745;0
8.35161e+09;-7.02854;0
8.47359e+09;-7.03979;0
8.59734e+09;-7.05121;0
8.7229e+09;-7.06279;0
8.8503e+09;-7.07455;0
8.97956e+09;-7.08649;0
9.1107e+09;-7.09863;0
9.24376e+09;-7.11097;0
9.37876e+09;-7.12352;0
9.51574e+09;-7.1363;0
9.65472e+09;-7.14931;0
9.79572e+09;-7.16255;0
9.93879e+09;-7.17602;0
1.00839e+10;-7.18969;0
1.02312e+10;-7.20355;0
1.03806e+10;-7.21756;0
1.05322e+10;-7.23169;0
1.06861e+10;-7.2459;0
1.08421e+10;-7.26016;0
1.10005e+10;-7.27442;0
1.11611e+10;-7.28866;0
1.13241e+10;-7.30289;0
1.14895e+10;-7.31709;0
1.16573e+10;-7.33128;0
1.18276e+10;-7.34552;0
1.20003e+10;-7.35983;0
1.21756e+10;-7.37427;0
1.23534e+10;-7.3889;0
1.25338e+10;-7.40375;0
1.27169e+10;-7.41888;0
1.29026e+10;-7.43432;0
1.30911e+10;-7.45008;0
1.32823e+10;-7.46618;0
1.34762e+10;-7.48263;0
1.36731e+10;-7.49946;0
1.38727e+10;-7.51669;0
1.40754e+10;-7.53434;0
1.42809e+10;-7.55242;0
1.44895e+10;-7.57094;0
1.47011e+10;-7.58988;0
1.49158e+10;-7.60919;0
1.51337e+10;-7.62878;0
1.53547e+10;-7.64852;0
1.55789e+10;-7.66828;0
1.58065e+10;-7.68792;0
1.60373e+10;-7.70736;0
1.62715e+10;-7.72655;0
1.65092e+10;-7.74551;0
1.67503e+10;-7.76435;0
1.69949e+10;-7.7832;0
1.72431e+10;-7.80223;0
1.7495e+10;-7.82161;0
1.77505e+10;-7.84148;0
1.80097e+10;-7.86193;0
1.82728e+10;-7.88303;0
1.85396e+10;-7.90485;0
1.88104e+10;-7.92742;0
1.90851e+10;-7.95077;0
1.93638e+10;-7.97487;0
1.96466e+10;-7.99962;0
1.99336e+10;-8.02482;0
2.02247e+10;-8.05017;0
2.05201e+10;-8.07535;0
2.08198e+10;-8.10008;0
2.11239e+10;-8.12422;0
2.14324e+10;-8.1478;0
2.17454e+10;-8.17107;0
2.2063e+10;-8.19437;0
2.23852e+10;-8.21809;0
2.27121e+10;-8.24258;0
2.30438e+10;-8.26807;0
2.33804e+10;-8.29473;0
2.37218e+10;-8.32264;0
2.40683e+10;-8.35175;0
2.44198e+10;-8.38189;0
2.47765e+10;-8.41264;0
2.51383e+10;-8.44344;0
2.55055e+10;-8.47369;0
2.5878e+10;-8.50301;0
2.62559e+10;-8.53134;0
2.66394e+10;-8.55909;0
2.70284e+10;-8.58689;0
2.74232e+10;-8.61545;0
2.78237e+10;-8.64534;0
2.823e+10;-8.6769;0
2.86423e+10;-8.71023;0
2.90606e+10;-8.74514;0
2.94851e+10;-8.78105;0
2.99157e+10;-8.81711;0
3.03526e+10;-8.85239;0
3.07959e+10;-8.88637;0
3.12457e+10;-8.91917;0
3.1702e+10;-8.95156;0
3.2165e+10;-8.98459;0
3.26348e+10;-9.01921;0
3.31114e+10;-9.05595;0
3.3595e+10;-9.09482;0
3.40856e+10;-9.13527;0
3.45835e+10;-9.17621;0
3.50885e+10;-9.21646;0
3.5601e+10;-9.25535;0
3.61209e+10;-9.29309;0
3.66485e+10;-9.33075;0
3.71837e+10;-9.36959;0
3.77268e+10;-9.41051;0
3.82778e+10;-9.45367;0
3.88368e+10;-9.49842;0
3.9404e+10;-9.54356;0
3.99795e+10;-9.58803;0
4.05634e+10;-9.63155;0
4.11558e+10;-9.67482;0
4.17569e+10;-9.71896;0
4.23668e+10;-9.76477;0
4.29855e+10;-9.81224;0
4.36133e+10;-9.86065;0
4.42503e+10;-9.90922;0
4.48965e+10;-9.95778;0
4.55522e+10;-10.0069;0
4.62175e+10;-10.0573;0
4.68925e+10;-10.1088;0
4.75774e+10;-10.1606;0
4.82722e+10;-10.2118;0
4.89772e+10;-10.2629;0
4.96926e+10;-10.3158;0
5.04183e+10;-10.3719;0
5.11547e+10;-10.4306;0
5.19018e+10;-10.4886;0
5.26598e+10;-10.5431;0
5.34289e+10;-10.5954;0
5.42092e+10;-10.6508;0
5.50009e+10;-10.7134;0
5.58042e+10;-10.7811;0
5.66192e+10;-10.8457;0
5.74461e+10;-10.9015;0
5.82851e+10;-10.9542;0
5.91363e+10;-11.0157;0
6e+10;-11.0904;0
