"frequency";"r dBS11";"i dBS11"
1e+07;-0.0275878;0
1.7665e+08;-0.139642;0
3.433e+08;-0.232373;0
5.0995e+08;-0.337858;0
6.766e+08;-0.460792;0
8.4325e+08;-0.602782;0
1.0099e+09;-0.764244;0
1.17655e+09;-0.944857;0
1.3432e+09;-1.14371;0
1.50985e+09;-1.35936;0
1.6765e+09;-1.58996;0
1.84315e+09;-1.83335;0
2.0098e+09;-2.08723;0
2.17645e+09;-2.34929;0
2.3431e+09;-2.61744;0
2.50975e+09;-2.88994;0
2.6764e+09;-3.16552;0
2.84305e+09;-3.44345;0
3.0097e+09;-3.72361;0
3.17635e+09;-4.00643;0
3.343e+09;-4.29285;0
3.50965e+09;-4.58424;0
3.6763e+09;-4.88228;0
3.84295e+09;-5.18888;0
4.0096e+09;-5.50599;0
4.17625e+09;-5.83554;0
4.3429e+09;-6.17929;0
4.50955e+09;-6.53869;0
4.6762e+09;-6.91485;0
4.84285e+09;-7.30834;0
5.0095e+09;-7.71921;0
5.17615e+09;-8.14686;0
5.3428e+09;-8.59008;0
5.50945e+09;-9.04701;0
5.6761e+09;-9.51523;0
5.84275e+09;-9.99187;0
6.0094e+09;-10.4738;0
6.17605e+09;-10.9579;0
6.3427e+09;-11.4411;0
6.50935e+09;-11.921;0
6.676e+09;-12.3962;0
6.84265e+09;-12.8662;0
7.0093e+09;-13.332;0
7.17595e+09;-13.7961;0
7.3426e+09;-14.263;0
7.50925e+09;-14.7386;0
7.6759e+09;-15.231;0
7.84255e+09;-15.7497;0
8.0092e+09;-16.3064;0
8.17585e+09;-16.9147;0
8.3425e+09;-17.5906;0
8.50915e+09;-18.3536;0
8.6758e+09;-19.2275;0
8.84245e+09;-20.2431;0
9.0091e+09;-21.4419;0
9.17575e+09;-22.8842;0
9.3424e+09;-24.6636;0
9.50905e+09;-26.9407;0
9.6757e+09;-30.0226;0
9.84235e+09;-34.5453;0
1.0009e+10;-40.214;0
1.01757e+10;-36.662;0
1.03423e+10;-31.6259;0
1.0509e+10;-28.3106;0
1.06756e+10;-25.9582;0
1.08423e+10;-24.1747;0
1.10089e+10;-22.761;0
1.11756e+10;-21.604;0
1.13422e+10;-20.6323;0
1.15089e+10;-19.7974;0
1.16755e+10;-19.0639;0
1.18422e+10;-18.4048;0
1.20088e+10;-17.7991;0
1.21755e+10;-17.2299;0
1.23421e+10;-16.6841;0
1.25088e+10;-16.1515;0
1.26754e+10;-15.6249;0
1.28421e+10;-15.0995;0
1.30087e+10;-14.5729;0
1.31754e+10;-14.0447;0
1.3342e+10;-13.5159;0
1.35087e+10;-12.9889;0
1.36753e+10;-12.4668;0
1.3842e+10;-11.9531;0
1.40086e+10;-11.4513;0
1.41753e+10;-10.9645;0
1.43419e+10;-10.4955;0
1.45086e+10;-10.0464;0
1.46752e+10;-9.61875;0
1.48419e+10;-9.2132;0
1.50085e+10;-8.82981;0
1.51752e+10;-8.46798;0
1.53418e+10;-8.12653;0
1.55085e+10;-7.8038;0
1.56751e+10;-7.49774;0
1.58418e+10;-7.20606;0
1.60084e+10;-6.92629;0
1.61751e+10;-6.65597;0
1.63417e+10;-6.39271;0
1.65084e+10;-6.1344;0
1.6675e+10;-5.87926;0
1.68417e+10;-5.62601;0
1.70083e+10;-5.37393;0
1.7175e+10;-5.12295;0
1.73416e+10;-4.87363;0
1.75083e+10;-4.62714;0
1.76749e+10;-4.38522;0
1.78416e+10;-4.14999;0
1.80082e+10;-3.92389;0
1.81749e+10;-3.70944;0
1.83415e+10;-3.50915;0
1.85082e+10;-3.32534;0
1.86748e+10;-3.16011;0
1.88415e+10;-3.01522;0
1.90081e+10;-2.89212;0
1.91748e+10;-2.79193;0
1.93414e+10;-2.7155;0
1.95081e+10;-2.66347;0
1.96747e+10;-2.63623;0
1.98414e+10;-2.63402;0
2.0008e+10;-2.65688;0
2.01747e+10;-2.70467;0
2.03413e+10;-2.77698;0
2.0508e+10;-2.87312;0
2.06746e+10;-2.99209;0
2.08413e+10;-3.13252;0
2.10079e+10;-3.29273;0
2.11746e+10;-3.47072;0
2.13412e+10;-3.66432;0
2.15079e+10;-3.8713;0
2.16745e+10;-4.08948;0
2.18412e+10;-4.31693;0
2.20078e+10;-4.55206;0
2.21745e+10;-4.79377;0
2.23411e+10;-5.04144;0
2.25078e+10;-5.29498;0
2.26744e+10;-5.55481;0
2.28411e+10;-5.82176;0
2.30077e+10;-6.097;0
2.31744e+10;-6.38191;0
2.3341e+10;-6.67799;0
2.35077e+10;-6.98672;0
2.36743e+10;-7.30943;0
2.3841e+10;-7.64722;0
2.40076e+10;-8.00086;0
2.41743e+10;-8.3707;0
2.43409e+10;-8.75657;0
2.45076e+10;-9.15783;0
2.46742e+10;-9.57326;0
2.48409e+10;-10.0012;0
2.50075e+10;-10.4394;0
2.51742e+10;-10.8855;0
2.53408e+10;-11.3368;0
2.55075e+10;-11.7906;0
2.56741e+10;-12.2447;0
2.58408e+10;-12.6972;0
2.60074e+10;-13.147;0
2.61741e+10;-13.594;0
2.63407e+10;-14.0391;0
2.65074e+10;-14.4849;0
2.6674e+10;-14.9349;0
2.68407e+10;-15.3941;0
2.70073e+10;-15.869;0
2.7174e+10;-16.367;0
2.73406e+10;-16.8972;0
2.75073e+10;-17.4695;0
2.76739e+10;-18.0955;0
2.78406e+10;-18.7883;0
2.80072e+10;-19.5633;0
2.81739e+10;-20.4388;0
2.83405e+10;-21.4375;0
2.85072e+10;-22.5887;0
2.86738e+10;-23.9311;0
2.88405e+10;-25.5187;0
2.90071e+10;-27.4269;0
2.91738e+10;-29.7521;0
2.93404e+10;-32.5411;0
2.95071e+10;-35.2875;0
2.96737e+10;-35.8237;0
2.98404e+10;-33.6139;0
3.0007e+10;-30.9974;0
3.01737e+10;-28.8002;0
3.03403e+10;-27.0242;0
3.0507e+10;-25.5673;0
3.06736e+10;-24.344;0
3.08403e+10;-23.2921;0
3.10069e+10;-22.3668;0
3.11736e+10;-21.5351;0
3.13402e+10;-20.7725;0
3.15069e+10;-20.0607;0
3.16735e+10;-19.3858;0
3.18402e+10;-18.7381;0
3.20068e+10;-18.1109;0
3.21735e+10;-17.4997;0
3.23401e+10;-16.9024;0
3.25068e+10;-16.3182;0
3.26734e+10;-15.7474;0
3.28401e+10;-15.1912;0
3.30067e+10;-14.6509;0
3.31734e+10;-14.1282;0
3.334e+10;-13.6244;0
3.35067e+10;-13.1407;0
3.36733e+10;-12.6779;0
3.384e+10;-12.2362;0
3.40066e+10;-11.8155;0
3.41733e+10;-11.4153;0
3.43399e+10;-11.0346;0
3.45066e+10;-10.6719;0
3.46732e+10;-10.3256;0
3.48399e+10;-9.99382;0
3.50065e+10;-9.67459;0
3.51732e+10;-9.36586;0
3.53398e+10;-9.06567;0
3.55065e+10;-8.77222;0
3.56731e+10;-8.48397;0
3.58398e+10;-8.19971;0
3.60064e+10;-7.91866;0
3.61731e+10;-7.64045;0
3.63397e+10;-7.36521;0
3.65064e+10;-7.09352;0
3.6673e+10;-6.82641;0
3.68397e+10;-6.56528;0
3.70063e+10;-6.31183;0
3.7173e+10;-6.06798;0
3.73396e+10;-5.83581;0
3.75063e+10;-5.61742;0
3.76729e+10;-5.41489;0
3.78396e+10;-5.23024;0
3.80062e+10;-5.06533;0
3.81729e+10;-4.92186;0
3.83395e+10;-4.80133;0
3.85062e+10;-4.70504;0
3.86728e+10;-4.63406;0
3.88395e+10;-4.5892;0
3.90061e+10;-4.57103;0
3.91728e+10;-4.57981;0
3.93394e+10;-4.61552;0
3.95061e+10;-4.6778;0
3.96727e+10;-4.76599;0
3.98394e+10;-4.87913;0
4.0006e+10;-5.01598;0
4.01727e+10;-5.17512;0
4.03393e+10;-5.35497;0
4.0506e+10;-5.55391;0
4.06726e+10;-5.77034;0
4.08393e+10;-6.00277;0
4.10059e+10;-6.24984;0
4.11726e+10;-6.51043;0
4.13392e+10;-6.7836;0
4.15059e+10;-7.06863;0
4.16725e+10;-7.365;0
4.18392e+10;-7.67236;0
4.20058e+10;-7.99044;0
4.21725e+10;-8.31909;0
4.23391e+10;-8.65815;0
4.25058e+10;-9.00749;0
4.26724e+10;-9.36693;0
4.28391e+10;-9.73625;0
4.30057e+10;-10.1152;0
4.31724e+10;-10.5035;0
4.3339e+10;-10.9008;0
4.35057e+10;-11.3069;0
4.36723e+10;-11.7216;0
4.3839e+10;-12.1448;0
4.40056e+10;-12.5768;0
4.41723e+10;-13.0179;0
4.43389e+10;-13.4688;0
4.45056e+10;-13.9306;0
4.46722e+10;-14.4047;0
4.48389e+10;-14.8929;0
4.50055e+10;-15.3974;0
4.51722e+10;-15.921;0
4.53388e+10;-16.4665;0
4.55055e+10;-17.0376;0
4.56721e+10;-17.638;0
4.58388e+10;-18.2722;0
4.60054e+10;-18.9451;0
4.61721e+10;-19.6623;0
4.63387e+10;-20.4303;0
4.65054e+10;-21.2568;0
4.6672e+10;-22.151;0
4.68387e+10;-23.1245;0
4.70053e+10;-24.1917;0
4.7172e+10;-25.3713;0
4.73386e+10;-26.6876;0
4.75053e+10;-28.1708;0
4.76719e+10;-29.8541;0
4.78386e+10;-31.7547;0
4.80052e+10;-33.793;0
4.81719e+10;-35.5507;0
4.83385e+10;-36.0731;0
4.85052e+10;-34.9353;0
4.86718e+10;-33.0053;0
4.88385e+10;-31.036;0
4.90051e+10;-29.2582;0
4.91718e+10;-27.6929;0
4.93384e+10;-26.3117;0
4.95051e+10;-25.082;0
4.96717e+10;-23.9768;0
4.98384e+10;-22.9753;0
5.0005e+10;-22.0618;0
5.01717e+10;-21.2245;0
5.03383e+10;-20.4542;0
5.0505e+10;-19.7435;0
5.06716e+10;-19.0866;0
5.08383e+10;-18.4782;0
5.10049e+10;-17.9137;0
5.11716e+10;-17.3889;0
5.13382e+10;-16.8994;0
5.15049e+10;-16.4412;0
5.16715e+10;-16.0101;0
5.18382e+10;-15.6021;0
5.20048e+10;-15.2129;0
5.21715e+10;-14.8385;0
5.23381e+10;-14.4751;0
5.25048e+10;-14.1191;0
5.26714e+10;-13.7673;0
5.28381e+10;-13.4171;0
5.30047e+10;-13.0663;0
5.31714e+10;-12.7137;0
5.3338e+10;-12.3586;0
5.35047e+10;-12.0012;0
5.36713e+10;-11.6421;0
5.3838e+10;-11.2829;0
5.40046e+10;-10.9253;0
5.41713e+10;-10.5713;0
5.43379e+10;-10.2233;0
5.45046e+10;-9.88341;0
5.46712e+10;-9.55377;0
5.48379e+10;-9.23628;0
5.50045e+10;-8.93252;0
5.51712e+10;-8.6438;0
5.53378e+10;-8.37106;0
5.55045e+10;-8.115;0
5.56711e+10;-7.87605;0
5.58378e+10;-7.6545;0
5.60044e+10;-7.45053;0
5.61711e+10;-7.26434;0
5.63377e+10;-7.09621;0
5.65044e+10;-6.94658;0
5.6671e+10;-6.81609;0
5.68377e+10;-6.70562;0
5.70043e+10;-6.61626;0
5.7171e+10;-6.54928;0
5.73376e+10;-6.50601;0
5.75043e+10;-6.4878;0
5.76709e+10;-6.4959;0
5.78376e+10;-6.53142;0
5.80042e+10;-6.59527;0
5.81709e+10;-6.68814;0
5.83375e+10;-6.81059;0
5.85042e+10;-6.96297;0
5.86708e+10;-7.14551;0
5.88375e+10;-7.35832;0
5.90041e+10;-7.6013;0
5.91708e+10;-7.87416;0
5.93374e+10;-8.17628;0
5.95041e+10;-8.5066;0
5.96707e+10;-8.86357;0
5.98374e+10;-9.24495;0
6.0004e+10;-9.64783;0
6.01707e+10;-10.0685;0
6.03373e+10;-10.5026;0
6.0504e+10;-10.9452;0
6.06706e+10;-11.3908;0
6.08373e+10;-11.8339;0
6.10039e+10;-12.2696;0
6.11706e+10;-12.6933;0
6.13372e+10;-13.1022;0
6.15039e+10;-13.4948;0
6.16705e+10;-13.8717;0
6.18372e+10;-14.2353;0
6.20038e+10;-14.5902;0
6.21705e+10;-14.9425;0
6.23371e+10;-15.2996;0
6.25038e+10;-15.67;0
6.26704e+10;-16.0625;0
6.28371e+10;-16.4864;0
6.30037e+10;-16.9509;0
6.31704e+10;-17.465;0
6.3337e+10;-18.0376;0
6.35037e+10;-18.6773;0
6.36703e+10;-19.3923;0
6.3837e+10;-20.1907;0
6.40036e+10;-21.0805;0
6.41703e+10;-22.0694;0
6.43369e+10;-23.1649;0
6.45036e+10;-24.3748;0
6.46702e+10;-25.7063;0
6.48369e+10;-27.1664;0
6.50035e+10;-28.7613;0
6.51702e+10;-30.4956;0
6.53368e+10;-32.3697;0
6.55035e+10;-34.3751;0
6.56701e+10;-36.4813;0
6.58368e+10;-38.6029;0
6.60034e+10;-40.5229;0
6.61701e+10;-41.7944;0
6.63367e+10;-41.8938;0
6.65034e+10;-40.7926;0
6.667e+10;-38.9912;0
6.68367e+10;-36.9467;0
6.70033e+10;-34.8882;0
6.717e+10;-32.9098;0
6.73366e+10;-31.0485;0
6.75033e+10;-29.3179;0
6.76699e+10;-27.7219;0
6.78366e+10;-26.2595;0
6.80032e+10;-24.9274;0
6.81699e+10;-23.7213;0
6.83365e+10;-22.6361;0
6.85032e+10;-21.6662;0
6.86698e+10;-20.8059;0
6.88365e+10;-20.049;0
6.90031e+10;-19.3893;0
6.91698e+10;-18.8201;0
6.93364e+10;-18.334;0
6.95031e+10;-17.9234;0
6.96697e+10;-17.5795;0
6.98364e+10;-17.2928;0
7.0003e+10;-17.0526;0
7.01697e+10;-16.8469;0
7.03363e+10;-16.6625;0
7.0503e+10;-16.4854;0
7.06696e+10;-16.3007;0
7.08363e+10;-16.0943;0
7.10029e+10;-15.8536;0
7.11696e+10;-15.5688;0
7.13362e+10;-15.2348;0
7.15029e+10;-14.851;0
7.16695e+10;-14.4219;0
7.18362e+10;-13.9561;0
7.20028e+10;-13.4647;0
7.21695e+10;-12.9603;0
7.23361e+10;-12.4553;0
7.25028e+10;-11.9611;0
7.26694e+10;-11.4873;0
7.28361e+10;-11.0418;0
7.30027e+10;-10.6248;0
7.31694e+10;-10.2457;0
7.3336e+10;-9.90893;0
7.35027e+10;-9.61546;0
7.36693e+10;-9.36511;0
7.3836e+10;-9.1568;0
7.40026e+10;-8.98872;0
7.41693e+10;-8.85845;0
7.43359e+10;-8.76304;0
7.45026e+10;-8.69913;0
7.46692e+10;-8.66307;0
7.48359e+10;-8.65116;0
7.50025e+10;-8.65988;0
7.51692e+10;-8.68635;0
7.53358e+10;-8.72869;0
7.55025e+10;-8.78636;0
7.56691e+10;-8.86032;0
7.58358e+10;-8.95297;0
7.60024e+10;-9.06792;0
7.61691e+10;-9.20963;0
7.63357e+10;-9.38305;0
7.65024e+10;-9.5933;0
7.6669e+10;-9.84543;0
7.68357e+10;-10.1442;0
7.70023e+10;-10.4937;0
7.7169e+10;-10.8977;0
7.73356e+10;-11.3586;0
7.75023e+10;-11.8777;0
7.76689e+10;-12.4548;0
7.78356e+10;-13.0872;0
7.80022e+10;-13.7696;0
7.81689e+10;-14.4929;0
7.83355e+10;-15.244;0
7.85022e+10;-16.0048;0
7.86688e+10;-16.7524;0
7.88355e+10;-17.46;0
7.90021e+10;-18.1001;0
7.91688e+10;-18.649;0
7.93354e+10;-19.0921;0
7.95021e+10;-19.4287;0
7.96687e+10;-19.6722;0
7.98354e+10;-19.8479;0
8.0002e+10;-19.9874;0
8.01687e+10;-20.1238;0
8.03353e+10;-20.2885;0
8.0502e+10;-20.5101;0
8.06686e+10;-20.8139;0
8.08353e+10;-21.2228;0
8.10019e+10;-21.7583;0
8.11686e+10;-22.4413;0
8.13352e+10;-23.2922;0
8.15019e+10;-24.3297;0
8.16685e+10;-25.5648;0
8.18352e+10;-26.9852;0
8.20018e+10;-28.5147;0
8.21685e+10;-29.9391;0
8.23351e+10;-30.8703;0
8.25018e+10;-30.9905;0
8.26684e+10;-30.4309;0
8.28351e+10;-29.6042;0
8.30017e+10;-28.8188;0
8.31684e+10;-28.2106;0
8.3335e+10;-27.82;0
8.35017e+10;-27.6484;0
8.36683e+10;-27.6829;0
8.3835e+10;-27.904;0
8.40016e+10;-28.2848;0
8.41683e+10;-28.7839;0
8.43349e+10;-29.3312;0
8.45016e+10;-29.8077;0
8.46682e+10;-30.0393;0
8.48349e+10;-29.8453;0
8.50015e+10;-29.1517;0
8.51682e+10;-28.0509;0
8.53348e+10;-26.7226;0
8.55015e+10;-25.3256;0
8.56681e+10;-23.9603;0
8.58348e+10;-22.6801;0
8.60014e+10;-21.5099;0
8.61681e+10;-20.4601;0
8.63347e+10;-19.5334;0
8.65014e+10;-18.7286;0
8.6668e+10;-18.0427;0
8.68347e+10;-17.4712;0
8.70013e+10;-17.0092;0
8.7168e+10;-16.6508;0
8.73346e+10;-16.3897;0
8.75013e+10;-16.2185;0
8.76679e+10;-16.1285;0
8.78346e+10;-16.1092;0
8.80012e+10;-16.1473;0
8.81679e+10;-16.2257;0
8.83345e+10;-16.3231;0
8.85012e+10;-16.4129;0
8.86678e+10;-16.4642;0
8.88345e+10;-16.4446;0
8.90011e+10;-16.3253;0
8.91678e+10;-16.0877;0
8.93344e+10;-15.7284;0
8.95011e+10;-15.2611;0
8.96677e+10;-14.7118;0
8.98344e+10;-14.1127;0
9.0001e+10;-13.4961;0
9.01677e+10;-12.8903;0
9.03343e+10;-12.3182;0
9.0501e+10;-11.7972;0
9.06676e+10;-11.3403;0
9.08343e+10;-10.9575;0
9.10009e+10;-10.6562;0
9.11676e+10;-10.4432;0
9.13342e+10;-10.3243;0
9.15009e+10;-10.3057;0
9.16675e+10;-10.3928;0
9.18342e+10;-10.5897;0
9.20008e+10;-10.8971;0
9.21675e+10;-11.3094;0
9.23341e+10;-11.8112;0
9.25008e+10;-12.3759;0
9.26674e+10;-12.9669;0
9.28341e+10;-13.5439;0
9.30007e+10;-14.0733;0
9.31674e+10;-14.5381;0
9.3334e+10;-14.9422;0
9.35007e+10;-15.3074;0
9.36673e+10;-15.6654;0
9.3834e+10;-16.0505;0
9.40006e+10;-16.4954;0
9.41673e+10;-17.0294;0
9.43339e+10;-17.6789;0
9.45006e+10;-18.4679;0
9.46672e+10;-19.4185;0
9.48339e+10;-20.5492;0
9.50005e+10;-21.8687;0
9.51672e+10;-23.3598;0
9.53338e+10;-24.9397;0
9.55005e+10;-26.3958;0
9.56671e+10;-27.3723;0
9.58338e+10;-27.6047;0
9.60004e+10;-27.2262;0
9.61671e+10;-26.6073;0
9.63337e+10;-26.0311;0
9.65004e+10;-25.6309;0
9.6667e+10;-25.4529;0
9.68337e+10;-25.5076;0
9.70003e+10;-25.7936;0
9.7167e+10;-26.3076;0
9.73336e+10;-27.0456;0
9.75003e+10;-27.9983;0
9.76669e+10;-29.13;0
9.78336e+10;-30.3218;0
9.80002e+10;-31.2597;0
9.81669e+10;-31.4149;0
9.83335e+10;-30.4965;0
9.85002e+10;-28.8551;0
9.86668e+10;-27.0047;0
9.88335e+10;-25.2269;0
9.90001e+10;-23.6193;0
9.91668e+10;-22.2028;0
9.93334e+10;-20.9735;0
9.95001e+10;-19.9207;0
9.96667e+10;-19.0335;0
9.98334e+10;-18.3018;0
1e+11;-17.7168;0
