"frequency";"r dBS21";"i dBS21"
1e+07;-0.0123864;0
1.01547e+07;-0.0124868;0
1.03118e+07;-0.012588;0
1.04713e+07;-0.0126901;0
1.06333e+07;-0.0127931;0
1.07978e+07;-0.0128969;0
1.09648e+07;-0.0130016;0
1.11344e+07;-0.0131072;0
1.13066e+07;-0.0132137;0
1.14815e+07;-0.0133212;0
1.16591e+07;-0.0134295;0
1.18395e+07;-0.0135388;0
1.20226e+07;-0.013649;0
1.22086e+07;-0.0137601;0
1.23975e+07;-0.0138722;0
1.25893e+07;-0.0139852;0
1.2784e+07;-0.0140993;0
1.29818e+07;-0.0142142;0
1.31826e+07;-0.0143302;0
1.33865e+07;-0.0144472;0
1.35936e+07;-0.0145652;0
1.38038e+07;-0.0146842;0
1.40174e+07;-0.0148042;0
1.42342e+07;-0.0149253;0
1.44544e+07;-0.0150474;0
1.4678e+07;-0.0151706;0
1.4905e+07;-0.0152948;0
1.51356e+07;-0.0154201;0
1.53697e+07;-0.0155465;0
1.56075e+07;-0.015674;0
1.58489e+07;-0.0158025;0
1.60941e+07;-0.0159322;0
1.63431e+07;-0.0160631;0
1.65959e+07;-0.016195;0
1.68526e+07;-0.0163281;0
1.71133e+07;-0.0164624;0
1.7378e+07;-0.0165979;0
1.76468e+07;-0.0167345;0
1.79198e+07;-0.0168723;0
1.8197e+07;-0.0170113;0
1.84785e+07;-0.0171516;0
1.87643e+07;-0.017293;0
1.90546e+07;-0.0174357;0
1.93494e+07;-0.0175797;0
1.96487e+07;-0.0177249;0
1.99526e+07;-0.0178714;0
2.02613e+07;-0.0180192;0
2.05747e+07;-0.0181683;0
2.0893e+07;-0.0183187;0
2.12162e+07;-0.0184704;0
2.15443e+07;-0.0186235;0
2.18776e+07;-0.0187779;0
2.2216e+07;-0.0189337;0
2.25597e+07;-0.0190909;0
2.29087e+07;-0.0192495;0
2.32631e+07;-0.0194095;0
2.36229e+07;-0.0195708;0
2.39883e+07;-0.0197337;0
2.43594e+07;-0.019898;0
2.47362e+07;-0.0200637;0
2.51189e+07;-0.0202309;0
2.55074e+07;-0.0203997;0
2.5902e+07;-0.0205699;0
2.63027e+07;-0.0207417;0
2.67096e+07;-0.020915;0
2.71227e+07;-0.0210898;0
2.75423e+07;-0.0212662;0
2.79683e+07;-0.0214442;0
2.8401e+07;-0.0216239;0
2.88403e+07;-0.0218051;0
2.92864e+07;-0.021988;0
2.97395e+07;-0.0221725;0
3.01995e+07;-0.0223587;0
3.06667e+07;-0.0225466;0
3.11411e+07;-0.0227361;0
3.16228e+07;-0.0229275;0
3.21119e+07;-0.0231205;0
3.26087e+07;-0.0233153;0
3.31131e+07;-0.0235119;0
3.36253e+07;-0.0237103;0
3.41455e+07;-0.0239104;0
3.46737e+07;-0.0241125;0
3.52101e+07;-0.0243163;0
3.57547e+07;-0.0245221;0
3.63078e+07;-0.0247297;0
3.68695e+07;-0.0249393;0
3.74398e+07;-0.0251507;0
3.80189e+07;-0.0253641;0
3.86071e+07;-0.0255795;0
3.92043e+07;-0.0257969;0
3.98107e+07;-0.0260163;0
4.04265e+07;-0.0262378;0
4.10519e+07;-0.0264613;0
4.16869e+07;-0.0266868;0
4.23318e+07;-0.0269145;0
4.29866e+07;-0.0271443;0
4.36516e+07;-0.0273763;0
4.43268e+07;-0.0276104;0
4.50125e+07;-0.0278467;0
4.57088e+07;-0.0280852;0
4.64159e+07;-0.028326;0
4.71339e+07;-0.028569;0
4.7863e+07;-0.0288143;0
4.86034e+07;-0.029062;0
4.93552e+07;-0.029312;0
5.01187e+07;-0.0295643;0
5.0894e+07;-0.0298191;0
5.16813e+07;-0.0300762;0
5.24807e+07;-0.0303359;0
5.32926e+07;-0.030598;0
5.4117e+07;-0.0308626;0
5.49541e+07;-0.0311297;0
5.58042e+07;-0.0313994;0
5.66674e+07;-0.0316716;0
5.7544e+07;-0.0319465;0
5.84341e+07;-0.0322241;0
5.93381e+07;-0.0325043;0
6.0256e+07;-0.0327872;0
6.11881e+07;-0.0330729;0
6.21346e+07;-0.0333613;0
6.30957e+07;-0.0336526;0
6.40718e+07;-0.0339467;0
6.50629e+07;-0.0342436;0
6.60693e+07;-0.0345435;0
6.70914e+07;-0.0348463;0
6.81292e+07;-0.035152;0
6.91831e+07;-0.0354608;0
7.02533e+07;-0.0357726;0
7.134e+07;-0.0360875;0
7.24436e+07;-0.0364055;0
7.35642e+07;-0.0367266;0
7.47022e+07;-0.0370509;0
7.58578e+07;-0.0373785;0
7.70312e+07;-0.0377093;0
7.82228e+07;-0.0380434;0
7.94328e+07;-0.0383809;0
8.06616e+07;-0.0387218;0
8.19093e+07;-0.039066;0
8.31764e+07;-0.0394138;0
8.4463e+07;-0.039765;0
8.57696e+07;-0.0401199;0
8.70964e+07;-0.0404783;0
8.84437e+07;-0.0408403;0
8.98118e+07;-0.0412061;0
9.12011e+07;-0.0415755;0
9.26119e+07;-0.0419488;0
9.40445e+07;-0.0423259;0
9.54993e+07;-0.0427068;0
9.69765e+07;-0.0430917;0
9.84767e+07;-0.0434806;0
1e+08;-0.0438734;0
1.01547e+08;-0.0442704;0
1.03118e+08;-0.0446715;0
1.04713e+08;-0.0450767;0
1.06333e+08;-0.0454862;0
1.07978e+08;-0.0459;0
1.09648e+08;-0.0463182;0
1.11344e+08;-0.0467407;0
1.13066e+08;-0.0471677;0
1.14815e+08;-0.0475993;0
1.16591e+08;-0.0480354;0
1.18395e+08;-0.0484761;0
1.20226e+08;-0.0489216;0
1.22086e+08;-0.0493718;0
1.23975e+08;-0.0498269;0
1.25893e+08;-0.0502868;0
1.2784e+08;-0.0507517;0
1.29818e+08;-0.0512217;0
1.31826e+08;-0.0516967;0
1.33865e+08;-0.0521769;0
1.35936e+08;-0.0526624;0
1.38038e+08;-0.0531532;0
1.40174e+08;-0.0536493;0
1.42342e+08;-0.0541509;0
1.44544e+08;-0.0546581;0
1.4678e+08;-0.0551708;0
1.4905e+08;-0.0556893;0
1.51356e+08;-0.0562135;0
1.53697e+08;-0.0567436;0
1.56075e+08;-0.0572796;0
1.58489e+08;-0.0578217;0
1.60941e+08;-0.0583699;0
1.63431e+08;-0.0589243;0
1.65959e+08;-0.0594849;0
1.68526e+08;-0.060052;0
1.71133e+08;-0.0606255;0
1.7378e+08;-0.0612056;0
1.76468e+08;-0.0617924;0
1.79198e+08;-0.0623859;0
1.8197e+08;-0.0629863;0
1.84785e+08;-0.0635937;0
1.87643e+08;-0.0642082;0
1.90546e+08;-0.0648299;0
1.93494e+08;-0.0654588;0
1.96487e+08;-0.0660952;0
1.99526e+08;-0.066739;0
2.02613e+08;-0.0673905;0
2.05747e+08;-0.0680498;0
2.0893e+08;-0.0687169;0
2.12162e+08;-0.0693921;0
2.15443e+08;-0.0700753;0
2.18776e+08;-0.0707668;0
2.2216e+08;-0.0714667;0
2.25597e+08;-0.0721751;0
2.29087e+08;-0.0728921;0
2.32631e+08;-0.0736179;0
2.36229e+08;-0.0743527;0
2.39883e+08;-0.0750965;0
2.43594e+08;-0.0758495;0
2.47362e+08;-0.0766119;0
2.51189e+08;-0.0773838;0
2.55074e+08;-0.0781654;0
2.5902e+08;-0.0789568;0
2.63027e+08;-0.0797582;0
2.67096e+08;-0.0805698;0
2.71227e+08;-0.0813917;0
2.75423e+08;-0.0822241;0
2.79683e+08;-0.0830672;0
2.8401e+08;-0.0839211;0
2.88403e+08;-0.0847861;0
2.92864e+08;-0.0856624;0
2.97395e+08;-0.08655;0
3.01995e+08;-0.0874493;0
3.06667e+08;-0.0883603;0
3.11411e+08;-0.0892835;0
3.16228e+08;-0.0902188;0
3.21119e+08;-0.0911666;0
3.26087e+08;-0.092127;0
3.31131e+08;-0.0931003;0
3.36253e+08;-0.0940868;0
3.41455e+08;-0.0950865;0
3.46737e+08;-0.0960999;0
3.52101e+08;-0.097127;0
3.57547e+08;-0.0981682;0
3.63078e+08;-0.0992238;0
3.68695e+08;-0.100294;0
3.74398e+08;-0.101379;0
3.80189e+08;-0.102479;0
3.86071e+08;-0.103594;0
3.92043e+08;-0.104725;0
3.98107e+08;-0.105872;0
4.04265e+08;-0.107036;0
4.10519e+08;-0.108215;0
4.16869e+08;-0.109412;0
4.23318e+08;-0.110626;0
4.29866e+08;-0.111857;0
4.36516e+08;-0.113106;0
4.43268e+08;-0.114373;0
4.50125e+08;-0.115659;0
4.57088e+08;-0.116963;0
4.64159e+08;-0.118287;0
4.71339e+08;-0.11963;0
4.7863e+08;-0.120992;0
4.86034e+08;-0.122376;0
4.93552e+08;-0.123779;0
5.01187e+08;-0.125204;0
5.0894e+08;-0.12665;0
5.16813e+08;-0.128118;0
5.24807e+08;-0.129609;0
5.32926e+08;-0.131121;0
5.4117e+08;-0.132657;0
5.49541e+08;-0.134217;0
5.58042e+08;-0.135801;0
5.66674e+08;-0.137408;0
5.7544e+08;-0.139041;0
5.84341e+08;-0.1407;0
5.93381e+08;-0.142384;0
6.0256e+08;-0.144094;0
6.11881e+08;-0.145831;0
6.21346e+08;-0.147596;0
6.30957e+08;-0.149389;0
6.40718e+08;-0.15121;0
6.50629e+08;-0.15306;0
6.60693e+08;-0.154939;0
6.70914e+08;-0.156849;0
6.81292e+08;-0.158789;0
6.91831e+08;-0.160761;0
7.02533e+08;-0.162764;0
7.134e+08;-0.1648;0
7.24436e+08;-0.166869;0
7.35642e+08;-0.168971;0
7.47022e+08;-0.171108;0
7.58578e+08;-0.17328;0
7.70312e+08;-0.175488;0
7.82228e+08;-0.177732;0
7.94328e+08;-0.180013;0
8.06616e+08;-0.182331;0
8.19093e+08;-0.184688;0
8.31764e+08;-0.187084;0
8.4463e+08;-0.18952;0
8.57696e+08;-0.191997;0
8.70964e+08;-0.194515;0
8.84437e+08;-0.197075;0
8.98118e+08;-0.199678;0
9.12011e+08;-0.202324;0
9.26119e+08;-0.205015;0
9.40445e+08;-0.207751;0
9.54993e+08;-0.210534;0
9.69765e+08;-0.213363;0
9.84767e+08;-0.21624;0
1e+09;-0.219166;0
1.01547e+09;-0.222141;0
1.03118e+09;-0.225166;0
1.04713e+09;-0.228243;0
1.06333e+09;-0.231372;0
1.07978e+09;-0.234554;0
1.09648e+09;-0.23779;0
1.11344e+09;-0.241082;0
1.13066e+09;-0.244429;0
1.14815e+09;-0.247833;0
1.16591e+09;-0.251295;0
1.18395e+09;-0.254816;0
1.20226e+09;-0.258397;0
1.22086e+09;-0.262039;0
1.23975e+09;-0.265743;0
1.25893e+09;-0.26951;0
1.2784e+09;-0.273342;0
1.29818e+09;-0.277239;0
1.31826e+09;-0.281202;0
1.33865e+09;-0.285234;0
1.35936e+09;-0.289334;0
1.38038e+09;-0.293505;0
1.40174e+09;-0.297748;0
1.42342e+09;-0.302063;0
1.44544e+09;-0.306453;0
1.4678e+09;-0.310918;0
1.4905e+09;-0.315461;0
1.51356e+09;-0.320082;0
1.53697e+09;-0.324784;0
1.56075e+09;-0.329567;0
1.58489e+09;-0.334434;0
1.60941e+09;-0.339387;0
1.63431e+09;-0.344426;0
1.65959e+09;-0.349556;0
1.68526e+09;-0.354776;0
1.71133e+09;-0.36009;0
1.7378e+09;-0.3655;0
1.76468e+09;-0.371008;0
1.79198e+09;-0.376617;0
1.8197e+09;-0.38233;0
1.84785e+09;-0.388149;0
1.87643e+09;-0.394078;0
1.90546e+09;-0.40012;0
1.93494e+09;-0.406279;0
1.96487e+09;-0.412558;0
1.99526e+09;-0.418961;0
2.02613e+09;-0.425493;0
2.05747e+09;-0.432158;0
2.0893e+09;-0.438962;0
2.12162e+09;-0.445909;0
2.15443e+09;-0.453006;0
2.18776e+09;-0.460259;0
2.2216e+09;-0.467673;0
2.25597e+09;-0.475257;0
2.29087e+09;-0.483018;0
2.32631e+09;-0.490965;0
2.36229e+09;-0.499105;0
2.39883e+09;-0.507449;0
2.43594e+09;-0.516007;0
2.47362e+09;-0.52479;0
2.51189e+09;-0.53381;0
2.55074e+09;-0.543079;0
2.5902e+09;-0.552611;0
2.63027e+09;-0.56242;0
2.67096e+09;-0.572523;0
2.71227e+09;-0.582937;0
2.75423e+09;-0.593678;0
2.79683e+09;-0.604767;0
2.8401e+09;-0.616224;0
2.88403e+09;-0.628071;0
2.92864e+09;-0.640332;0
2.97395e+09;-0.653032;0
3.01995e+09;-0.666197;0
3.06667e+09;-0.679857;0
3.11411e+09;-0.694041;0
3.16228e+09;-0.708782;0
3.21119e+09;-0.724115;0
3.26087e+09;-0.740074;0
3.31131e+09;-0.7567;0
3.36253e+09;-0.774031;0
3.41455e+09;-0.792112;0
3.46737e+09;-0.810986;0
3.52101e+09;-0.830701;0
3.57547e+09;-0.851306;0
3.63078e+09;-0.872853;0
3.68695e+09;-0.895397;0
3.74398e+09;-0.918992;0
3.80189e+09;-0.943697;0
3.86071e+09;-0.969572;0
3.92043e+09;-0.99668;0
3.98107e+09;-1.02508;0
4.04265e+09;-1.05485;0
4.10519e+09;-1.08605;0
4.16869e+09;-1.11874;0
4.23318e+09;-1.153;0
4.29866e+09;-1.18889;0
4.36516e+09;-1.22649;0
4.43268e+09;-1.26588;0
4.50125e+09;-1.30711;0
4.57088e+09;-1.35028;0
4.64159e+09;-1.39544;0
4.71339e+09;-1.44268;0
4.7863e+09;-1.49208;0
4.86034e+09;-1.5437;0
4.93552e+09;-1.59765;0
5.01187e+09;-1.65399;0
5.0894e+09;-1.71283;0
5.16813e+09;-1.77425;0
5.24807e+09;-1.83839;0
5.32926e+09;-1.90534;0
5.4117e+09;-1.97526;0
5.49541e+09;-2.0483;0
5.58042e+09;-2.12465;0
5.66674e+09;-2.20451;0
5.7544e+09;-2.28814;0
5.84341e+09;-2.37582;0
5.93381e+09;-2.46791;0
6.0256e+09;-2.5648;0
6.11881e+09;-2.66698;0
6.21346e+09;-2.77499;0
6.30957e+09;-2.88949;0
6.40718e+09;-3.01125;0
6.50629e+09;-3.14114;0
6.60693e+09;-3.28021;0
6.70914e+09;-3.42964;0
6.81292e+09;-3.59082;0
6.91831e+09;-3.76534;0
7.02533e+09;-3.95502;0
7.134e+09;-4.16198;0
7.24436e+09;-4.38862;0
7.35642e+09;-4.63771;0
7.47022e+09;-4.91241;0
7.58578e+09;-5.21636;0
7.70312e+09;-5.55377;0
7.82228e+09;-5.92948;0
7.94328e+09;-6.34918;0
8.06616e+09;-6.81957;0
8.19093e+09;-7.34867;0
8.31764e+09;-7.94629;0
8.4463e+09;-8.6247;0
8.57696e+09;-9.39964;0
8.70964e+09;-10.2921;0
8.84437e+09;-11.3309;0
8.98118e+09;-12.5581;0
9.12011e+09;-14.0379;0
9.26119e+09;-15.876;0
9.40445e+09;-18.2646;0
9.54993e+09;-21.6019;0
9.69765e+09;-26.8283;0
9.84767e+09;-32.3811;0
1e+10;-25.9065;0
1.01547e+10;-20.894;0
1.03118e+10;-17.6097;0
1.04713e+10;-15.2087;0
1.06333e+10;-13.3319;0
1.07978e+10;-11.8036;0
1.09648e+10;-10.5266;0
1.11344e+10;-9.44144;0
1.13066e+10;-8.50939;0
1.14815e+10;-7.70345;0
1.16591e+10;-7.00372;0
1.18395e+10;-6.39471;0
1.20226e+10;-5.86373;0
1.22086e+10;-5.39996;0
1.23975e+10;-4.99392;0
1.25893e+10;-4.63716;0
1.2784e+10;-4.32216;0
1.29818e+10;-4.04221;0
1.31826e+10;-3.79152;0
1.33865e+10;-3.56515;0
1.35936e+10;-3.35909;0
1.38038e+10;-3.17022;0
1.40174e+10;-2.99634;0
1.42342e+10;-2.83606;0
1.44544e+10;-2.68869;0
1.4678e+10;-2.55412;0
1.4905e+10;-2.43257;0
1.51356e+10;-2.32438;0
1.53697e+10;-2.22982;0
1.56075e+10;-2.1489;0
1.58489e+10;-2.08124;0
1.60941e+10;-2.02605;0
1.63431e+10;-1.98219;0
1.65959e+10;-1.94819;0
1.68526e+10;-1.92247;0
1.71133e+10;-1.90341;0
1.7378e+10;-1.88955;0
1.76468e+10;-1.87973;0
1.79198e+10;-1.8732;0
1.8197e+10;-1.86974;0
1.84785e+10;-1.86967;0
1.87643e+10;-1.8738;0
1.90546e+10;-1.88324;0
1.93494e+10;-1.89909;0
1.96487e+10;-1.92218;0
1.99526e+10;-1.9528;0
2.02613e+10;-1.99069;0
2.05747e+10;-2.03521;0
2.0893e+10;-2.08565;0
2.12162e+10;-2.14176;0
2.15443e+10;-2.20405;0
2.18776e+10;-2.2742;0
2.2216e+10;-2.35507;0
2.25597e+10;-2.45071;0
2.29087e+10;-2.56611;0
2.32631e+10;-2.70674;0
2.36229e+10;-2.87794;0
2.39883e+10;-3.08444;0
2.43594e+10;-3.33045;0
2.47362e+10;-3.62081;0
2.51189e+10;-3.96353;0
2.55074e+10;-4.37358;0
2.5902e+10;-4.87771;0
2.63027e+10;-5.52003;0
2.67096e+10;-6.36882;0
2.71227e+10;-7.52672;0
2.75423e+10;-9.15173;0
2.79683e+10;-11.515;0
2.8401e+10;-15.189;0
2.88403e+10;-21.6419;0
2.92864e+10;-23.6716;0
2.97395e+10;-16.2903;0
3.01995e+10;-12.1034;0
3.06667e+10;-9.49557;0
3.11411e+10;-7.75438;0
3.16228e+10;-6.55235;0
3.21119e+10;-5.69965;0
3.26087e+10;-5.07539;0
3.31131e+10;-4.60419;0
3.36253e+10;-4.24306;0
3.41455e+10;-3.96937;0
3.46737e+10;-3.76976;0
3.52101e+10;-3.63229;0
3.57547e+10;-3.54386;0
3.63078e+10;-3.49168;0
3.68695e+10;-3.46618;0
3.74398e+10;-3.46281;0
3.80189e+10;-3.48153;0
3.86071e+10;-3.52418;0
3.92043e+10;-3.59182;0
3.98107e+10;-3.68471;0
4.04265e+10;-3.80504;0
4.10519e+10;-3.96005;0
4.16869e+10;-4.16334;0
4.23318e+10;-4.43439;0
4.29866e+10;-4.79984;0
4.36516e+10;-5.30187;0
4.43268e+10;-6.01805;0
4.50125e+10;-7.09691;0
4.57088e+10;-8.82716;0
4.64159e+10;-11.8263;0
4.71339e+10;-17.6972;0
4.7863e+10;-21.4837;0
4.86034e+10;-13.672;0
4.93552e+10;-9.7419;0
5.01187e+10;-7.6403;0
5.0894e+10;-6.43128;0
5.16813e+10;-5.7215;0
5.24807e+10;-5.31256;0
5.32926e+10;-5.08156;0
5.4117e+10;-4.95332;0
5.49541e+10;-4.89611;0
5.58042e+10;-4.90186;0
5.66674e+10;-4.96027;0
5.7544e+10;-5.06154;0
5.84341e+10;-5.21694;0
5.93381e+10;-5.45729;0
6.0256e+10;-5.80503;0
6.11881e+10;-6.29051;0
6.21346e+10;-7.07619;0
6.30957e+10;-8.60858;0
6.40718e+10;-11.851;0
6.50629e+10;-19.2066;0
6.60693e+10;-15.6382;0
6.70914e+10;-10.1798;0
6.81292e+10;-7.96371;0
6.91831e+10;-6.90349;0
7.02533e+10;-6.43961;0
7.134e+10;-6.27932;0
7.24436e+10;-6.22011;0
7.35642e+10;-6.23154;0
7.47022e+10;-6.32786;0
7.58578e+10;-6.48244;0
7.70312e+10;-6.77552;0
7.82228e+10;-7.30696;0
7.94328e+10;-8.14475;0
8.06616e+10;-10.2254;0
8.19093e+10;-16.7241;0
8.31764e+10;-13.9101;0
8.4463e+10;-9.12267;0
8.57696e+10;-7.83209;0
8.70964e+10;-7.37505;0
8.84437e+10;-7.31481;0
8.98118e+10;-7.38986;0
9.12011e+10;-7.59888;0
9.26119e+10;-7.83441;0
9.40445e+10;-8.1326;0
9.54993e+10;-8.89127;0
9.69765e+10;-10.2453;0
9.84767e+10;-15.2943;0
1e+11;-10.0631;0
